Time (s);Momen Horizontal (N.m);Momen Vertikal (N.m);Momen Torsional (N.m)
0.0;3464.8642578125;-29441384;6280.2763671875
0.5;2059.07739257813;-22045844;6087.5625
1;-187.339004516602;-7395344;4603.7021484375
1.5;-2047.17529296875;9391948;-1331.24682617188
2;-2950.75708007813;23352100;-8708.779296875
2.5;-2813.7490234375;30752528;-11798.494140625
3;-1629.01721191406;30034984;-8880.8017578125
3.5;359.421875;21834828;-3040.47802734375
4;2506.4755859375;8466992;1577.47131347656
4.5;4005.4970703125;-6785857;3694.03955078125
5;4298.96630859375;-20366748;4983.19873046875
5.5;3336.88330078125;-29275908;6597.82470703125
6;1409.89636230469;-31881248;7614.2998046875
6.5;-1094.41345214844;-28166336;6691.595703125
7;-3641.5126953125;-19445052;3196.2265625
7.5;-5472.962890625;-7973651;-2168.09594726563
8;-6036.3828125;3524319.5;-6614.18359375
8.5;-5301.0634765625;12528534;-7482.4248046875
9;-3471.4697265625;17358528;-5625.869140625
9.5;-721.308166503906;17538484;-4035.66772460938
10;2524.666015625;13811472;-3513.48754882813
10.5;5385.4638671875;7778134;-2063.1318359375
11;6992.86181640625;1355386.625;1689.82165527344
11.5;7054.2646484375;-3679291;5914.7783203125
12;5841.3720703125;-6097060;7080.4365234375
12.5;3744.75122070313;-5591685;4139.62841796875
13;1062.69067382813;-2794413.5;-31.330810546875
13.5;-1770.03857421875;1142003.5;-2237.3564453125
14;-4133.40185546875;4980156;-2321.66259765625
14.5;-5524.03173828125;7651567;-1980.44250488281
15;-5808.1669921875;8492078;-2099.09301757813
15.5;-5138.5263671875;7431320;-2176.8447265625
16;-3784.9228515625;4930031;-1280.25561523438
16.5;-2062.29833984375;1713430.5;755.745849609375
17;-292.954956054688;-1486637.75;2812.0703125
17.5;1256.37414550781;-4091021.5;3524.83447265625
18;2427.6806640625;-5743376;2708.8310546875
18.5;3155.70288085938;-6323350;1295.79797363281
19;3412.591796875;-5940183;223.4970703125
19.5;3204.248046875;-4885155;-294.306884765625
20;2617.7138671875;-3519261.5;-705.758483886719
20.5;1808.29418945313;-2175983.5;-1415.18322753906
21;908.398498535156;-1144036.5;-2108.95825195313
21.5;-12.6103515625;-659496.9375;-2076.93603515625
22;-888.09619140625;-843223.0625;-1175.64733886719
22.5;-1593.744140625;-1639618;-34.8828125
23;-2038.1748046875;-2812082;716.497680664063
23.5;-2212.90234375;-3972300.5;1036.64489746094
24;-2178.64111328125;-4633620;1203.30493164063
24.5;-1996.49169921875;-4318691;1295.61010742188
25;-1687.66137695313;-2710685.5;1128.70874023438
25.5;-1251.3857421875;209632.25;537.714233398438
26;-673.613220214844;4096113;-414.266845703125
26.5;69.9596252441406;8267884;-1454.44458007813
27;986.307006835938;11850514;-2281.77978515625
27.5;2033.31774902344;13990788;-2706.65454101563
28;3077.1318359375;14079544;-2596.72241210938
28.5;3902.91333007813;11922596;-1854.4189453125
29;4268.2255859375;7807543;-563.966369628906
29.5;3961.6640625;2431870;985.675537109375
30;2872.68530273438;-3282130;2449.5322265625
30.5;1053.89672851563;-8411145;3485.58251953125
31;-1261.08630371094;-12231566;3816.09790039063
31.5;-3685.68237304688;-14346622;3374.23046875
32;-5755.6708984375;-14700112;2297.17041015625
32.5;-7062.3564453125;-13490322;815.7900390625
33;-7286.23046875;-11046456;-739.880920410156
33.5;-6315.8388671875;-7713586;-2009.67041015625
34;-4254.5888671875;-3781674.5;-2789.55810546875
34.5;-1403.91943359375;508183.8125;-3043.00634765625
35;1798.15405273438;4898745;-2819.1572265625
35.5;4860.94287109375;9054301;-2277.79760742188
36;7333.7705078125;12538688;-1639.34375
36.5;8855.85546875;14847632;-1024.01232910156
37;9199.58984375;15511288;-441.724243164063
37.5;8297.232421875;14239654;120.041381835938
38;6233.7275390625;11042218;691.799072265625
38.5;3237.9208984375;6275205;1298.2275390625
39;-341.067474365234;605006.875;1883.8974609375
39.5;-4056.21484375;-5114222;2319.89135742188
40;-7409.8515625;-10020438;2469.42822265625
40.5;-9914.4609375;-13416292;2229.29296875
41;-11161.333984375;-14885344;1577.95581054688
41.5;-10892.19140625;-14334792;614.814575195313
42;-9064.234375;-11962648;-462.97314453125
42.5;-5868.791015625;-8173442;-1426.64807128906
43;-1729.06030273438;-3486486;-2091.28466796875
43.5;2769.77856445313;1530931.25;-2375.43432617188
44;6975.50341796875;6301159;-2312.193359375
44.5;10272.966796875;10253590;-2005.25183105469
45;12185.74609375;12845156;-1570.85961914063
45.5;12452.283203125;13614222;-1098.48095703125
46;11046.6669921875;12275686;-622.542602539063
46.5;8165.494140625;8824700;-106.010498046875
47;4192.9765625;3618105;522.462707519531
47.5;-375.199859619141;-2605512.5;1280.16491699219
48;-4981.4990234375;-8816042;2065.2666015625
48.5;-9063.8349609375;-13879480;2677.4013671875
49;-12114.17578125;-16805610;2891.33349609375
49.5;-13713.265625;-16987932;2542.240234375
50;-13587.16796875;-14361374;1597.060546875
50.5;-11638.759765625;-9426360;190.607055664063
51;-8013.650390625;-3127463.5;-1381.15502929688
51.5;-3097.0703125;3380367;-2743.61767578125
52;2502.25048828125;9008179;-3590.291015625
52.5;8022.43896484375;12969882;-3773.94213867188
53;12644.8544921875;14915388;-3293.8623046875
53.5;15626.3818359375;14932116;-2281.19458007813
54;16446.00390625;13432290;-1000.51525878906
54.5;14919.51171875;10978196;226.723876953125
55;11219.7978515625;8107901;1152.75073242188
55.5;5866.98828125;5217678;1676.57470703125
56;-366.508636474609;2526088.5;1827.74633789063
56.5;-6565.33984375;108815.6875;1698.5263671875
57;-11835.2353515625;-2029198.25;1402.55590820313
57.5;-15447.376953125;-3887463;1072.67541503906
58;-16929.78125;-5438439;814.633544921875
58.5;-16118.205078125;-6637982;634.42919921875
59;-13151.2958984375;-7462407;466.879638671875
59.5;-8459.984375;-7940711;276.24853515625
60;-2694.59423828125;-8156958;68.26953125
60.5;3374.9111328125;-8213390;-141.64013671875
61;8933.57421875;-8168537;-321.302795410156
61.5;13232.08984375;-7983613;-422.439758300781
62;15677.4609375;-7507898;-421.332550048828
62.5;15926.26171875;-6522757;-349.241760253906
63;13948.7216796875;-4835004;-295.383911132813
63.5;10041.171875;-2387042;-369.042724609375
64;4791.7685546875;664529.125;-621.854370117188
64.5;-1005.94189453125;3941584.5;-1007.43298339844
65;-6475.4033203125;6924528;-1402.78015136719
65.5;-10808.357421875;9098113;-1640.01770019531
66;-13404.5791015625;10114034;-1553.91430664063
66.5;-13963.599609375;9909552;-1065.90234375
67;-12512.884765625;8732208;-240.663940429688
67.5;-9384.146484375;7056629;733.059204101563
68;-5122.806640625;5418104;1601.60180664063
68.5;-388.175872802734;4221947.5;2122.03149414063
69;4161.158203125;3598160.5;2151.66357421875
69.5;7951.62255859375;3356613.5;1707.17065429688
70;10559.1884765625;3061384;955.541809082031
70.5;11722.0771484375;2199606.5;155.601440429688
71;11350.1611328125;384476.25;-423.790161132813
71.5;9510.3828125;-2477628.25;-593.987548828125
72;6423.0205078125;-6115418;-315.18408203125
72.5;2444.7333984375;-9938672;299.141357421875
73;-1950.01940917969;-13184898;1023.36157226563
73.5;-6210.9619140625;-15115598;1568.36767578125
74;-9752.650390625;-15200020;1667.00671386719
74.5;-12041.2998046875;-13232230;1203.53088378906
75;-12690.3076171875;-9359340;272.496002197266
75.5;-11525.86328125;-4027421;-892.414611816406
76;-8632.7666015625;2121356;-2026.10180664063
76.5;-4363.39892578125;8359178;-2899.54174804688
77;708.231323242188;13961892;-3356.77001953125
77.5;5862.66357421875;18266872;-3335.49365234375
78;10357.279296875;20712448;-2871.71704101563
78.5;13541.7001953125;20878880;-2085.45654296875
79;14932.353515625;18547096;-1109.97827148438
79.5;14283.087890625;13771700;-15.0399627685547
80;11616.1220703125;6944976;1174.08361816406
80.5;7223.642578125;-1185366.375;2391.97924804688
81;1628.55688476563;-9575774;3490.31567382813
81.5;-4469.32275390625;-17034922;4252.8984375
82;-10272.73046875;-22438312;4446.23095703125
82.5;-14960.7861328125;-24959088;3904.64135742188
83;-17821.2109375;-24249812;2610.0966796875
83.5;-18319.29296875;-20518512;718.000244140625
84;-16238.51171875;-14472698;-1451.10717773438
84.5;-11709.8642578125;-7145091;-3459.45776367188
85;-5255.5341796875;346137.75;-4866.32861328125
85.5;2265.2373046875;7032331;-5377.95263671875
86;9767.908203125;12256132;-4952.7236328125
86.5;16119.7236328125;15724428;-3804.88818359375
87;20318.037109375;17453856;-2296.04736328125
87.5;21680.88671875;17649088;-782.932861328125
88;19943.228515625;16570336;472.141845703125
88.5;15340.1572265625;14445086;1311.07897949219
89;8540.2578125;11449090;1688.15478515625
89.5;537.79150390625;7750533;1695.43310546875
90;-7515.7763671875;3580382.5;1530.34094238281
90.5;-14494.9970703125;-719513.5;1380.06286621094
91;-19451.0546875;-4705320;1315.11767578125
91.5;-21738.6015625;-7906656;1283.23852539063
92;-21092.62109375;-9946090;1186.44116210938
92.5;-17639.60546875;-10655922;960.5673828125
93;-11872.23828125;-10143410;608.417724609375
93.5;-4575.611328125;-8773008;183.913818359375
94;3273.11962890625;-7065118;-233.941162109375
94.5;10613.3095703125;-5542604;-556.951782226563
95;16444.10546875;-4577222.5;-707.529052734375
95.5;19960.27734375;-4289524;-654.462890625
96;20667.6640625;-4531920.5;-439.0595703125
96.5;18466.96484375;-4957027;-171.149658203125
97;13685.4140625;-5140553;6.711181640625
97.5;7033.25;-4712015;-17.9171142578125
98;-494.650512695313;-3448226;-269.680908203125
98.5;-7778.24658203125;-1306713;-671.30224609375
99;-13751.486328125;1598136;-1077.49670410156
99.5;-17569.728515625;5050055.5;-1335.67895507813
100;-18729.6640625;8780253;-1344.73449707031
100.5;-17142.376953125;12489210;-1083.90478515625
101;-13118.634765625;15834338;-607.7294921875
101.5;-7299.03271484375;18408156;-31.2794189453125
102;-547.214233398438;19736840;501.832641601563
102.5;6178.25927734375;19331244;878.4755859375
103;11948.271484375;16794952;1070.44018554688
103.5;15978.583984375;11968430;1149.90246582031
104;17717.888671875;5060780;1257.27429199219
104.5;16911.44140625;-3288006.75;1518.66516113281
105;13631.60546875;-12051812;1952.40576171875
105.5;8287.8828125;-19984112;2432.865234375
106;1583.75708007813;-25866192;2729.65600585938
106.5;-5546.0859375;-28775964;2597.61401367188
107;-12070.98828125;-28298600;1884.45922851563
107.5;-16996.978515625;-24615932;607.199462890625
108;-19524.8125;-18446892;-1033.7958984375
108.5;-19197.10546875;-10861122;-2694.24951171875
109;-15979.4130859375;-3021500.5;-3974.3271484375
109.5;-10299.201171875;4064608.5;-4555.568359375
110;-2980.07568359375;9718408;-4328.673828125
110.5;4888.8603515625;13648472;-3431.81274414063
111;12128.798828125;15900040;-2181.72998046875
111.5;17668.421875;16730490;-932.828125
112;20719.998046875;16470428;53.35986328125
112.5;20864.11328125;15416812;662.68212890625
113;18135.203125;13785410;910.206787109375
113.5;12939.6806640625;11718690;900.129516601563
114;6032.33837890625;9323246;787.684692382813
114.5;-1631.30432128906;6705180;720.795715332031
115;-9019.0908203125;3978102;783.11279296875
115.5;-15156.85546875;1245130.75;962.12060546875
116;-19246.51953125;-1430031.875;1173.22631835938
116.5;-20765.08984375;-4035113.5;1315.73266601563
117;-19528.0859375;-6586754;1330.97290039063
117.5;-15719.6064453125;-9072599;1229.26489257813
118;-9875.4033203125;-11380338;1050.04541015625
118.5;-2807.83642578125;-13251100;839.696166992188
119;4494.029296875;-14291932;624.384643554688
119.5;11020.955078125;-14062160;385.774047851563
120;15894.94921875;-12217860;62.6738891601563
120.5;18492.337890625;-8670416;-420.221374511719
121;18552.97265625;-3699688.5;-1101.083984375
121.5;16187.6220703125;2030342.5;-1929.63012695313
122;11849.681640625;7576268;-2744.00268554688
122.5;6230.912109375;11920656;-3295.12280273438
123;131.930908203125;14223934;-3322.97119140625
123.5;-5655.56982421875;14044500;-2660.63159179688
124;-10468.1669921875;11459292;-1322.85485839844
124.5;-13824.455078125;7045434;463.279052734375
125;-15451.8046875;1730185;2306.345703125
125.5;-15272.609375;-3442020;3763.63452148438
126;-13381.607421875;-7553360;4477.59130859375
126.5;-10026.455078125;-9995838;4283.345703125
127;-5571.6533203125;-10549966;3251.5595703125
127.5;-498.042358398438;-9353276;1653.12548828125
128;4647.21728515625;-6789757;-132.542663574219
128.5;9277.1884765625;-3352771.5;-1731.80859375
129;12833.9609375;467292.4375;-2871.7880859375
129.5;14860.63671875;4242002;-3429.56762695313
130;15074.625;7610019;-3428.09692382813
130.5;13418.927734375;10254026;-2988.56420898438
131;10080.197265625;11883452;-2266.17724609375
131.5;5480.740234375;12250338;-1395.35559082031
132;205.979370117188;11201380;-465.918304443359
132.5;-5070.89404296875;8746830;466.131195068359
133;-9695.970703125;5111091;1349.56433105469
133.5;-13103.7392578125;730943.5;2107.22802734375
134;-14891.87109375;-3811143;2631.95458984375
134.5;-14858.89453125;-7906140;2812.28686523438
135;-13016.353515625;-11053814;2578.095703125
135.5;-9583.541015625;-12966592;1943.91333007813
136;-4961.85693359375;-13606038;1025.25036621094
136.5;294.9482421875;-13138896;17.6976318359375
137;5543.98046875;-11834752;-857.674682617188
137.5;10107.4833984375;-9947514;-1422.89501953125
138;13366.052734375;-7630103;-1600.47473144531
138.5;14847.8076171875;-4918347;-1437.9150390625
139;14314.0087890625;-1787596;-1088.36633300781
139.5;11813.640625;1746066.125;-752.32421875
140;7698.828125;5528259.5;-598.837158203125
140.5;2580.00122070313;9223238;-695.706298828125
141;-2771.15698242188;12353524;-978.509765625
141.5;-7550.65625;14415442;-1273.49340820313
142;-11063.8271484375;15033440;-1369.54187011719
142.5;-12845.5078125;14091576;-1108.92211914063
143;-12709.080078125;11792608;-459.164245605469
143.5;-10782.369140625;8611936;466.6123046875
144;-7445.46337890625;5164623;1446.38537597656
144.5;-3252.966796875;2024098.75;2227.466796875
145;1169.64306640625;-439131.03125;2612.55078125
145.5;5216.6103515625;-2144555.5;2522.39794921875
146;8379.4951171875;-3284887.75;2016.3984375
146.5;10293.2265625;-4215974;1265.87768554688
147;10759.861328125;-5296094;494.006591796875
147.5;9754.912109375;-6735820;-98.860107421875
148;7425.6318359375;-8511724;-397.797607421875
148.5;4071.6533203125;-10371360;-404.210327148438
149;124.213012695313;-11919244;-223.475830078125
149.5;-3892.32153320313;-12748732;-15.5560302734375
150;-7426.18701171875;-12565776;72.7042083740234
150.5;-9967.109375;-11262730;-35.7330627441406
151;-11124.216796875;-8924070;-323.106079101563
151.5;-10704.681640625;-5772361;-696.256103515625
152;-8742.52734375;-2091890;-1034.71069335938
152.5;-5504.935546875;1838104.25;-1247.458984375
153;-1451.27465820313;5767081;-1309.17016601563
153.5;2843.7138671875;9459522;-1261.04797363281
154;6788.4755859375;12660586;-1177.42358398438
154.5;9855.908203125;15074936;-1119.35717773438
155;11659.3466796875;16388732;-1093.72412109375
155.5;11986.208984375;16335392;-1041.50695800781
156;10811.396484375;14791460;-862.611572265625
156.5;8278.5908203125;11856904;-465.342010498047
157;4686.4326171875;7884818;175.854644775391
157.5;448.806549072266;3428526;986.307556152344
158;-3942.9833984375;-881847.8125;1797.56555175781
158.5;-7955.806640625;-4500679.5;2397.01904296875
159;-11073.724609375;-7108680;2603.93090820313
159.5;-12858.0068359375;-8683956;2341.65161132813
160;-13016.8876953125;-9471123;1672.83813476563
160.5;-11465.0546875;-9857772;782.603759765625
161;-8359.53515625;-10201374;-86.037109375
161.5;-4100.697265625;-10670374;-717.598266601563
162;718.329284667969;-11161696;-996.872680664063
162.5;5402.1806640625;-11326180;-942.963745117188
163;9274.0947265625;-10697398;-693.795776367188
163.5;11787.35546875;-8877666;-448.940399169922
164;12619.31640625;-5713304;-391.298645019531
164.5;11724.9833984375;-1397400;-615.161499023438
165;9319.005859375;3542469;-1084.81396484375
165.5;5825.9404296875;8361887;-1640.29150390625
166;1788.1015625;12288130;-2053.07153320313
166.5;-2226.90649414063;14711538;-2111.58813476563
167;-5716.39794921875;15322848;-1704.52416992188
167.5;-8291.169921875;14156988;-867.75390625
168;-9706.578125;11544090;225.269287109375
168.5;-9869.755859375;7994947;1322.541015625
169;-8825.046875;4069009;2179.37353515625
169.5;-6744.19921875;268931.25;2632.74365234375
170;-3904.486328125;-3015470.5;2640.2822265625
170.5;-666.021118164063;-5517429;2271.5380859375
171;2565.9208984375;-7075318;1664.39440917969
171.5;5377.61669921875;-7619746;966.762939453125
172;7406.470703125;-7177363;290.956298828125
172.5;8397.6982421875;-5894924;-303.96923828125
173;8239.0791015625;-4056911;-799.9033203125
173.5;6985.8212890625;-2074277.75;-1188.38940429688
174;4847.8876953125;-420381;-1442.1220703125
174.5;2147.5009765625;481751.25;-1508.1103515625
175;-735.244873046875;389197.5;-1328.73278808594
175.5;-3427.1884765625;-655875.875;-883.216186523438
176;-5614.9892578125;-2297309.75;-225.466979980469
176.5;-7071.5595703125;-3936220;502.113830566406
177;-7662.8603515625;-4894497;1096.70336914063
177.5;-7343.541015625;-4624823;1357.17358398438
178;-6144.66796875;-2901938;1159.51904296875
178.5;-4169.07470703125;74598.5;513.988525390625
179;-1592.27014160156;3704281;-420.762634277344
179.5;1331.05676269531;7138472;-1375.8232421875
180;4266.83447265625;9514320;-2051.73657226563
180.5;6826.1015625;10198030;-2212.76049804688
181;8605.32421875;8961376;-1763.18444824219
181.5;9256.2978515625;6037396;-781.701110839844
182;8566.87890625;2044028.5;497.631713867188
182.5;6523.1533203125;-2192959;1749.88342285156
183;3346.076171875;-5855569;2650.01586914063
183.5;-523.209838867188;-8320544;2964.619140625
184;-4489.13525390625;-9266604;2615.97265625
184.5;-7911.06005859375;-8687454;1699.3701171875
185;-10206.259765625;-6823983;448.699615478516
185.5;-10976.822265625;-4061595;-838.789184570313
186;-10066.44140625;-833269.625;-1889.38098144531
186.5;-7593.4580078125;2441536.5;-2521.86669921875
187;-3921.18774414063;5378896;-2677.67041015625
187.5;402.591674804688;7630418;-2406.43676757813
188;4736.76220703125;8890238;-1821.86730957031
188.5;8443.58203125;8928950;-1053.029296875
189;10968.111328125;7653299;-208.438125610352
189.5;11927.7216796875;5172739;631.075927734375
190;11152.6171875;1834030.75;1397.42211914063
190.5;8712.04296875;-1803219.75;2011.48999023438
191;4918.2001953125;-5067253;2372.41455078125
191.5;294.433349609375;-7325400;2371.39038085938
192;-4484.638671875;-8151071;1934.20654296875
192.5;-8692.958984375;-7444907;1073.30383300781
193;-11654.181640625;-5467527;-79.8165893554688
193.5;-12868.560546875;-2770425;-1282.81909179688
194;-12107.1484375;-39707.875;-2241.97119140625
194.5;-9463.5244140625;2092829;-2702.81665039063
195;-5354.1064453125;3211651.5;-2536.4228515625
195.5;-445.541015625;3201205.5;-1786.23657226563
196;4453.3544921875;2230725;-656.669311523438
196.5;8549.912109375;656018.125;550.882019042969
197;11205.3544921875;-1116642.5;1531.72485351563
197.5;12053.359375;-2748926.5;2064.73046875
198;11028.3671875;-4028666;2068.92529296875
198.5;8376.6923828125;-4855103;1612.50219726563
199;4581.99658203125;-5173466;873.081359863281
199.5;275.186767578125;-4900257;69.4595947265625
200;-3883.546875;-3889055;-613.25732421875
200.5;-7287.1435546875;-1963482;-1075.37036132813
201;-9473.880859375;987151.6875;-1311.84680175781
201.5;-10163.80859375;4885184.5;-1383.51733398438
202;-9287.119140625;9371926;-1364.73461914063
202.5;-6987.18359375;13793184;-1296.12133789063
203;-3598.15405273438;17288468;-1162.3994140625
203.5;374.91943359375;18971740;-905.078369140625
204;4334.11767578125;18152996;-457.524627685547
204.5;7656.79296875;14535888;211.742492675781
205;9776.6298828125;8329804;1068.76733398438
205.5;10300.69140625;240558.75;2003.83642578125
206;9078.95703125;-8654940;2847.67578125
206.5;6244.69580078125;-17113530;3406.83276367188
