Time (s);Momen Horizontal (N.m);Momen Vertikal (N.m);Momen Torsional (N.m)
0.0;9488734;-632895.5;-287415.90625
0.5;8898558;-1079618;312612.625
1;6480871;-847334.5;701670.0625
1.5;2552089.5;-48673;688624.4375
2;-2310594.5;1007974.5625;283288.5
2.5;-7390054.5;1919355;-341966.96875
3;-11892459;2339382.5;-934400.3125
3.5;-15008824;2076690.5;-1241132.75
4;-16002262;1132634;-1106657
4.5;-14347422;-309766;-539759.4375
5;-9895129;-1899820.25;298434.0625
5.5;-2996937.5;-3185400.5;1154778.375
6;5460478;-3763850.5;1758894.25
6.5;14150197;-3419851.5;1909375.375
7;21526328;-2171788.5;1541524
7.5;26121192;-271128.5;742178.25
8;26862308;1829259.25;-280395.78125
8.5;23335280;3579476.25;-1252562.25
9;15905788;4503225.5;-1909455.25
9.5;5668542.5;4342200.5;-2072289.25
10;-5752312.5;3136012.5;-1707956.625
10.5;-16515097;1201090.25;-947862.0625
11;-24913118;-975639.9375;-44554.6875
11.5;-29668132;-2861218.25;724152.5625
12;-30111680;-3997696.5;1158165
12.5;-26252276;-4137495;1201886.25
13;-18729384;-3324809.5;949663.75
13.5;-8671828;-1850020.5;584846.5
14;2489065.5;-125317.375;283729.53125
14.5;13211626;1427847;138523.296875
15;22028514;2477687.25;131658.140625
15.5;27712040;2868849;159842.75
16;29412912;2645618.5;91645.78125
16.5;26778256;1992282.5;-163771.09375
17;20041074;1140838.5;-604922.375
17.5;10051710;288734.25;-1125605.5
18;-1778622.5;-446415.5;-1546026
18.5;-13638702;-1026062;-1675108.625
19;-23582132;-1461648.75;-1384380.5
19.5;-29863834;-1775228.75;-669173.4375
20;-31281246;-1957420;329215.6875
20.5;-27442620;-1945244.625;1355439
21;-18893352;-1644916.25;2116779
21.5;-7055175;-992094.75;2376450.25
22;6025983;-7889.75;2031788.625
22.5;18074340;1170389.875;1151539.75
23;27033312;2293615.5;-39800.09375
23.5;31466248;3053245.5;-1224642.25
24;30815272;3177399;-2082969.25
24.5;25460184;2534452;-2386187
25;16575502;1201120.75;-2067405.25
25.5;5835011;-535800.375;-1244361.25
26;-4954254;-2245578.25;-183182.203125
26.5;-14197832;-3472458;789833.4375
27;-20763340;-3868486.5;1399384.5
27.5;-24093568;-3299614.5;1512710.875
28;-24184892;-1893072.5;1174994.25
28.5;-21467520;-8857.75;575827.875
29;-16640276;1860982.75;-36141.5
29.5;-10512784;3233725;-451928.25
30;-3888663;3769765.5;-573377.875
30.5;2503448.25;3364413;-432902.6875
31;8042749;2168407;-161335.375
31.5;12235154;530441.5;77549.140625
32;14737852;-1114074.5;156977.3125
32.5;15394824;-2369140.25;35943.53125
33;14271890;-2982918;-228575.78125
33.5;11670166;-2899767.5;-507270.75
34;8098220;-2245894.25;-651390.75
34.5;4191281.5;-1263375.25;-554087
35;586498.75;-221986.25;-198487.09375
35.5;-2215493;662635.375;325925.375
36;-3962675.25;1278474.25;847286.25
36.5;-4700934;1618544.25;1169795.25
37;-4737648.5;1742025.75;1147130.625
37.5;-4524527;1721506.625;743303.375
38;-4494428.5;1593117.125;55712.73828125
38.5;-4903162;1339476;-710755.3125
39;-5728144.5;913891.25;-1310289.625
39.5;-6661701;277638.75;-1540542.375
40;-7205199;-545979.5;-1315147.625
40.5;-6835383;-1444923.25;-697047.375
41;-5191632;-2225443;120769.859375
41.5;-2224490;-2663017.5;880236.375
42;1745955.5;-2576198.75;1345574.875
42.5;6082069;-1900610;1382043.375
43;9977500;-732809.5;998398.625
43.5;12658543;674532.5;339627.15625
44;13577727;1972604.375;-365534.78125
44.5;12541796;2817857;-882244.5
45;9739986;2975688.75;-1048331.125
45.5;5670190;2400203.25;-828551
46;993995.25;1255304;-325776.40625
46.5;-3628870.75;-130686.25;256030.96875
47;-7673731.5;-1364405.75;686116
47.5;-10814834;-2108143.25;792645.625
48;-12911368;-2182338.5;528036.625
48.5;-13935799;-1618378.75;-11703.3125
49;-13885204;-642030.625;-621864.9375
49.5;-12720324;400592.5;-1064958.25
50;-10362042;1162674;-1159109.25
50.5;-6751576;1408762.5;-846013.25
51;-1950928.75;1086654;-213580.21875
51.5;3758105.5;338832.75;535068.25
52;9822716;-550919.25;1153842.125
52.5;15448694;-1256205.5;1439629.25
53;19718524;-1520518.25;1300546.875
53.5;21775104;-1242808.5;783460.8125
54;21024606;-507810;53815.625
54.5;17300932;446747.5;-661974.125
55;10942989;1315927.125;-1150901.5
55.5;2760739;1829369.5;-1281124.625
56;-6103540;1838814.25;-1042166.5625
56.5;-14381750;1360264.75;-544420
57;-20902292;557978.5;23029.25
57.5;-24775622;-320313.15625;463234.0625
58;-25508536;-1030020.5;645643.3125
58.5;-23035730;-1407243.75;553466
59;-17682846;-1412028.125;283895.3125
59.5;-10088622;-1125466.25;896.5625
60;-1116342.875;-702425.125;-138899.078125
60.5;8227471;-301773.5625;-55733.578125
61;16865046;-23057.5625;217510.53125
61.5;23723034;124908;547470.75
62;27829192;212404.5625;754135.9375
62.5;28438644;340472.25;685092.75
63;25181052;578365.375;282291.28125
63.5;18197370;914586.3125;-383115.53125
64;8220907;1244545.5;-1122191.125
64.5;-3442530;1403858.75;-1684370.75
65;-15061571;1236707.25;-1842561
65.5;-24747890;669540.25;-1479962.25
66;-30801468;-237603;-645308.625
66.5;-32059938;-1285366.75;449256.4375
67;-28166514;-2182931.75;1492379.5
67.5;-19684044;-2632257;2177162
68;-8018993;-2430120;2303565
68.5;4836633.5;-1548643.5;1839979.375
69;16688574;-165996.5;924531.9375
69.5;25561636;1369230.25;-186117.40625
70;30063364;2634086;-1196595.25
70.5;29611476;3260111;-1855294.75
71;24485836;3049351.5;-2020037.75
71.5;15709664;2041591;-1692786.25
72;4806262;506161.5;-1014739
72.5;-6501733;-1138001.25;-219876.71875
73;-16579910;-2447347.25;443248.4375
73.5;-24104430;-3083716.5;797194.75
74;-28193172;-2909679;795913.3125
74.5;-28449204;-2020520.25;532674.375
75;-24939606;-706859.375;191168.09375
75.5;-18139412;643015.5;-39112.5
76;-8862448;1662343.5;-45343.578125
76.5;1812404.625;2113105.25;164473.703125
77;12626494;1945720;472638.8125
77.5;22250916;1295126.375;709559.1875
78;29427666;418974.25;730138.0625
78.5;33136480;-397719;476147.375
79;32761566;-935899.5;1183.21875
79.5;28221018;-1102223.5;-548469.375
80;20018438;-935973.5;-986963.4375
80.5;9191314;-570159.5;-1156146.75
81;-2845102;-164290.5;-984180.875
81.5;-14529882;160057;-516081.15625
82;-24412124;357268.75;95826.59375
82.5;-31372200;456052.125;641509.75
83;-34759128;524568.875;927694.875
83.5;-34421092;619362.25;850753
84;-30638016;742629;438761.8125
84.5;-23992472;828142.5;-155493.5625
85;-15228184;764016;-708684.125
85.5;-5140784;445539;-1007398.1875
86;5474117;-163594;-925032.125
86.5;15818740;-987838;-467795.09375
87;25063596;-1835796;225125.984375
87.5;32333004;-2443815;925553.0625
88;36741896;-2557257.75;1389289.25
88.5;37503328;-2023725;1435510.875
89;34096600;-866029.5;1008721.6875
89.5;26454008;696503.5;204562.21875
90;15107940;2290635.25;-750129.75
90.5;1237045.625;3488791.5;-1561115.5
91;-13427694;3935649.75;-1959879.875
91.5;-26839624;3460216.5;-1798442.375
92;-36976120;2136922.75;-1109760.375
92.5;-42209304;274345.6875;-104423.5
93;-41623392;-1665672.5;902842.8125
93.5;-35204144;-3196210.75;1609537.875
94;-23856334;-3940160.5;1834501
94.5;-9249729;-3735217;1571433
95;6469532;-2674166;968381.9375
95.5;21035008;-1069838.25;251614.71875
96;32411160;643167.75;-365392.9375
96.5;39076412;2037886;-749478.8125
97;40201972;2813582.75;-873037.625
97.5;35716172;2866690.5;-799048.75
98;26269676;2295185.5;-640838.5
98.5;13126002;1341862.75;-513183.875
99;-1996561;301306.5;-488328.5
99.5;-17114884;-574374.375;-567784.5
100;-30193660;-1140480;-678990.375
100.5;-39376016;-1377905.625;-701806.4375
101;-43221196;-1366158.5;-519884.9375
101.5;-40928464;-1225724.875;-79537.125
102;-32510636;-1056965.25;569505.0625
102.5;-18874824;-897229.75;1273215.75
103;-1772249.625;-713217.625;1817189.625
103.5;16402338;-430785;1999635.375
104;32948176;11323.5;1705472.625
104.5;45285884;608203;954063.6875
105;51397352;1262126.5;-96176.875
105.5;50188280;1799143.5;-1187702.125
106;41695560;2026728.25;-2036737.75
106.5;27090574;1809715.25;-2417861.5
107;8477532;1135039.75;-2235601.75
107.5;-11469114;135523.4375;-1559272.25
108;-29948516;-938638.5;-605288.375
108.5;-44468424;-1792227;333534.125
109;-53189520;-2178513.25;990471.8125
109.5;-55129968;-1981494.5;1219721
110;-50216856;-1261518.125;1042588
110.5;-39206488;-241441.5;624237.5625
111;-23517836;758383;193563.5
111.5;-5024903;1422060;-54968.296875
112;14154070;1542765;-34449.453125
112.5;31853968;1094089;212508.28125
113;46046572;242548.75;543116.75
113.5;55019248;-705526.4375;775649.8125
114;57554948;-1406865.25;757091
114.5;53104256;-1598593;416699.5625
115;41924368;-1190328;-205927.9375
115.5;25144526;-296710;-963334.75
116;4716424;800076;-1633707.75
116.5;-16776081;1744358.5;-1983535.5
117;-36443916;2224298.5;-1847023.75
117.5;-51515264;2072756.5;-1197838.5
118;-59781152;1319327.5;-179394.5625
118.5;-59975728;179445.625;930483
119;-52009304;-1016643;1814348.5
119.5;-37004408;-1926447.5;2230402.25
120;-17120654;-2302762.5;2095026.75
120.5;4793652.5;-2066754;1497445.125
121;25653990;-1325217.625;648008.375
121.5;42610072;-326804.53125;-207913.75
122;53449888;625808;-870799.1875
122.5;56878704;1276050.75;-1235872
123;52643620;1489380;-1302435
123.5;41507912;1282391;-1151456.5
124;25100684;795512.875;-903281
124.5;5680498.5;227947.0625;-669430.125
125;-14152228;-239490.78125;-510584.9375
125.5;-31764760;-503640.25;-414469.375
126;-44802624;-561168;-304205.75
126.5;-51481100;-489660.875;-78609.3125
127;-50833420;-398833.875;328615.5625
127.5;-42883944;-371662.5;897849.875
128;-28707104;-422997.5;1506731.875
128.5;-10339534;-488684.75;1960117
129;9469899;-455067.5;2056715
129.5;27656408;-217699.25;1666092.25
130;41329744;254933.125;787091.3125
130.5;48274680;881484.5625;-432941.0625
131;47362416;1474186;-1724612.875
131.5;38781020;1797836.5;-2762519
132;24026146;1653102.5;-3255002
132.5;5643341.5;964926.5;-3034155
133;-13232359;-169689;-2119448
133.5;-29446630;-1489866.5;-728142.625
134;-40389160;-2635986.5;780774
134.5;-44437520;-3253430;2018042.625
135;-41196432;-3102742;2690276
135.5;-31496744;-2144532;2688457.75
136;-17173006;-566764;2102728.5
136.5;-681543.8125;1252484.5;1164983
137;15350193;2844639.75;154225.671875
137.5;28550598;3783742;-691739.875
138;37135048;3812043;-1229593.5
138.5;40102344;2918109.75;-1424507.75
139;37291864;1340271.5;-1334169.5
139.5;29323852;-505206.71875;-1074956.25
140;17456772;-2147378;-778701.375
140.5;3395135.5;-3194836.25;-547456.875
141;-10927864;-3438380.5;-417845.9375
141.5;-23578252;-2893790.5;-349475.40625
142;-32849342;-1776066.75;-247350.96875
142.5;-37477680;-419200.0625;-14612.75
143;-36824128;828943.75;386711.5
143.5;-30990360;1705208.25;896976.6875
144;-20838256;2088510.75;1366088.625
144.5;-7889561;2008293.5;1607406.875
145;5893905;1602862.75;1476281.75
145.5;18423216;1049334.125;937720.0625
146;27832954;494478.375;93920.53125
146.5;32801120;12510.125;-839989.375
147;32768622;-396082;-1602625.125
147.5;28010608;-768622.25;-1970791.75
148;19545126;-1133004.625;-1833266.5
148.5;8903753;-1465765.75;-1229377
149;-2178560;-1682673.75;-339636.75
149.5;-12081070;-1664556.75;570462.4375
150;-19551830;-1309756;1236409.5
150.5;-23852952;-592067.75;1481970.75
151;-24781232;399832.375;1276019
151.5;-22587052;1461819;737259.8125
152;-17835200;2318408.5;85382.71875
152.5;-11260134;2702463.75;-441696.75
153;-3656354.5;2446306.25;-672279.125
153.5;4180383.5;1550366.5;-556656.375
154;11470509;204261.875;-176685.90625
154.5;17455842;-1253310.25;290753.28125
155;21425578;-2427467.5;640351.875
155.5;22784720;-2984601.5;711674.625
156;21162410;-2758729.5;445260.84375
156.5;16535827;-1806601;-94560.5625
157;9324282;-396505.75;-736724.5625
157.5;410115.375;1071138.625;-1256428.5
158;-8944547;2184768.5;-1450005.375
158.5;-17285138;2645191;-1209453
159;-23223628;2352293.5;-569592.1875
159.5;-25712388;1429575.25;293785.5625
160;-24265212;178169.875;1120096.75
160.5;-19069636;-1019521.125;1655382.5
161;-10959816;-1820636.75;1742701.875
161.5;-1257261.75;-2023557.5;1373803.625
162;8483067;-1622492.75;683685.375
162.5;16759098;-796655.625;-105543
163;22376348;159728.1875;-764395.1875
163.5;24620440;940281.5;-1129313.25
164;23322400;1326746.25;-1146235.125
164.5;18823790;1251317.75;-875354.875
165;11867256;804120.25;-459948.09375
165.5;3453570;185442.625;-70756.765625
166;-5302288;-374410.84375;156114.71875
166.5;-13293829;-698462.3125;167786.953125
167;-19522048;-719346.9375;12078.8125
167.5;-23178114;-490817;-184790.1875
168;-23722092;-153351.78125;-273440.46875
168.5;-20960428;129257.5625;-149035.4375
169;-15112818;239232.3125;197238.1875
169.5;-6843991;150872.03125;665491.5625
170;2766545.5;-62257.3125;1080417.125
170.5;12337658;-262912;1257488.625
171;20382222;-313047.75;1075950.25
171.5;25560232;-139664.5;530636
172;26938240;224971.25;-256347.0625
172.5;24194368;648411.25;-1067829.25
173;17711228;944279.6875;-1657701
173.5;8525943;948509.875;-1830662.75
174;-1860652;590692;-1510578.75
174.5;-11774711;-65663.75;-774179.125
175;-19691754;-832291.125;165869.53125
175.5;-24514676;-1453000.5;1026981.9375
176;-25744776;-1689721;1551310.5
176.5;-23511792;-1411883;1593801
177;-18470100;-651070.125;1169348
177.5;-11601038;393635.9375;441866.78125
178;-3982480;1409094;-338022
178.5;3411768.5;2064955;-920385.0625
179;9837719;2123489.5;-1136973.25
179.5;14817078;1523943;-949784.125
180;18098900;412295;-455483.28125
180.5;19583686;-896131.75;152964.1875
181;19254004;-2012498.125;653506.125
181.5;17143702;-2591741.25;869460.5625
182;13358502;-2446051.5;728135.9375
182.5;8133423;-1602203;284619.21875
183;1892922;-295786;-297091.28125
183.5;-4723786.5;1101508.5;-800851.75
184;-10903143;2196821;-1034881.75
184.5;-15769642;2694621;-901840.8125
185;-18547936;2481591;-436788.5625
185.5;-18734616;1652520.25;204036.4375
186;-16227936;471196.625;801130.5
186.5;-11377444;-719244;1154349.25
187;-4934378.5;-1603941.75;1156490.25
187.5;2084884.25;-1987900.5;828250.125
188;8588328;-1842286.75;302464.28125
188.5;13601427;-1293107;-232548.125
189;16421431;-561271;-605247.5
189.5;16701739;121464.3125;-721048.625
190;14464290;590891.875;-589731.5
190.5;10052031;790020;-313677.5
191;4051905;766954.5;-43046.0859375
191.5;-2786591.5;632497.5;85340.859375
192;-9621158;498808.5;3866.34375
192.5;-15575580;426549;-255514.203125
193;-19799658;401094.5;-569252.6875
193.5;-21547100;346195;-767775.9375
194;-20280818;169463;-703674.4375
194.5;-15796811;-182531.5;-316828.8125
195;-8340604;-679057.625;329939.8125
195.5;1324520.5;-1195007.25;1060392.875
196;11938696;-1541117.5;1637992.5
196.5;21881868;-1529577.5;1843763.5
197;29422584;-1052408.5;1552287.75
197.5;33041874;-142906.5;780410.3125
198;31765400;1006852.25;-305797.375
198.5;25421692;2088105.25;-1429157.25
199;14753462;2762849;-2276076.5
199.5;1339841.75;2776732.5;-2589839.25
200;-12667480;2050290.25;-2256164.75
200.5;-24942136;719651.375;-1350412
201;-33428148;-890308.6875;-123127.3125
201.5;-36733940;-2353851.25;1079192
202;-34387720;-3267109;1931077
202.5;-26903548;-3365814;2235129
203;-15652809;-2610338.5;1974743.75
203.5;-2580028;-1199558;1295428.75
204;10167309;484126.8125;432681.5
204.5;20613448;1986105.25;-375586.5
205;27262280;2912610;-956972.125
205.5;29293532;3043412.5;-1236661.25
206;26631244;2388624;-1235212.625
206.5;19896362;1172412.5;-1042142.375
207;10272874;-244286;-776289.9375
207.5;-681201.5;-1478930.5;-541596.375
208;-11248009;-2237640;-389474.3125
208.5;-19770742;-2389180.5;-300358.15625
209;-24865610;-1982581.5;-195465.546875
209.5;-25614344;-1208170.125;20803.75
210;-21718364;-320515.125;403284.59375
210.5;-13591524;450056.25;919647.375
211;-2361748;963572.5;1440589.5
211.5;10239815;1198013.5;1776340.375
212;22110450;1227599;1747087.25
212.5;31105768;1166174.5;1259346.5
213;35421304;1101882.5;356106.125
213.5;33950036;1050827;-779431.6875
214;26538572;955149;-1869580.5
214.5;14075226;716739.875;-2622719
215;-1621800.125;259170.75;-2823443
215.5;-18103122;-415629;-2404024
216;-32714902;-1201624.5;-1472019.875
216.5;-43067712;-1906596.25;-281033.25
217;-47449904;-2309003.5;850232.5625
217.5;-45104976;-2234375;1642559.125
218;-36327184;-1628221.875;1943617.25
218.5;-22370308;-589566.25;1763225
219;-5204094.5;637971.5;1246528.25
219.5;12818964;1728896.5;604357.1875
220;29316492;2372135.5;35008.4375
220.5;42187824;2371336.5;-333199.4375
221;49848108;1715183;-466133.875
221.5;51368060;591323.0625;-417341.25
222;46533936;-665538.75;-299648.1875
222.5;35841992;-1674728;-242828.6875
223;20446724;-2129727;-345274.6875
223.5;2069161;-1895221;-630564.4375
224;-17140608;-1049615;-1023783.25
224.5;-34797656;140874.125;-1364042
225;-48537684;1306861;-1458251.875
225.5;-56322168;2090722.75;-1162335.75
226;-56757068;2256731.5;-456104.3125
226.5;-49369596;1758181;526652.1875
227;-34777760;751504;1532708.5
227.5;-14699454;-457685.1875;2276339.5
228;8226319;-1511724.5;2539115.5
228.5;30796186;-2112891.5;2239908.75
229;49721080;-2113848.5;1451888.25
229.5;62146356;-1556920.5;369412.6875
230;66114208;-649572;-753970.625
230.5;60883184;313223;-1673685.25
231;47044952;1052198.375;-2210912
231.5;26425922;1391873.75;-2289934
232;1800378.25;1305209.5;-1950557.5
232.5;-23523992;903049.25;-1332224.375
233;-46173876;378190.6875;-629056
233.5;-63155180;-72147.75;-24446.5625
234;-72223808;-316459.25;372516.25
234.5;-72141472;-328218.75;560430.375
235;-62807072;-186019;629794.375
235.5;-45262096;-28961;703960.375
236;-21577432;6393;865581.5
236.5;5368029;-150826;1106479.375
237;32203620;-469306.25;1324105.375
237.5;55459552;-822405.75;1364930.625
238;72004736;-1037308.3125;1093917.25
238.5;79480504;-968369.125;460032.75
239;76673392;-564306;-466261.125
239.5;63755872;97512;-1496284.625
240;42338720;830202.5;-2365918
240.5;15297925;1399130.625;-2807785.5
241;-13616988;1606200;-2636718.75
241.5;-40343024;1364028.25;-1824841.875
242;-61140216;732786.25;-536413.8125
242.5;-73187808;-93223.5;903847.75
243;-75026480;-846109.5;2109480.5
243.5;-66762216;-1273482.5;2763283
244;-49995536;-1227071.5;2722104.75
244.5;-27499164;-720049.5;2049305.75
245;-2715929.75;66764.9375;969973.8125
245.5;20817394;838244.75;-218620.34375
246;40010668;1283111;-1236533
246.5;52633504;1184005;-1883427.75
247;57546656;501532;-2068294.125
247.5;54740544;-599201;-1814918.375
248;45207460;-1794923.5;-1247241.5
248.5;30697800;-2699829.5;-553944.875
249;13418100;-2990274.75;66158.5625
249.5;-4276197;-2508439;467415.5625
250;-20158758;-1316234.5;605874.25
250.5;-32362176;318213.25;549279.375
251;-39554176;1995052.5;438778.625
251.5;-41060384;3296427;415597.75
252;-36927440;3902895;547774.9375
252.5;-27919204;3680834.75;793309.3125
253;-15430936;2710845;1019083.5
253.5;-1316841.75;1254690.375;1065300.5
254;12360522;-329839.75;823410.5
254.5;23630876;-1694931.25;290753.28125
255;30917880;-2595085.5;-420211.125
255.5;33286172;-2936773.75;-1118321.125
256;30581064;-2775529.5;-1598555.625
256.5;23429984;-2264906.5;-1709998.5
257;13104366;-1585396.75;-1406051
257.5;1273292.25;-880950.875;-761995.3125
258;-10295593;-224615;44444.203125
258.5;-20022604;377817.375;785633.875
259;-26733604;952122;1255370.375
259.5;-29773948;1508280.25;1336355.625
260;-29014664;2002028.25;1039326
260.5;-24774150;2328461.75;497826.34375
261;-17696970;2348196.5;-80641.5
261.5;-8629975;1943370.5;-488637.625
262;1471783.625;1080927;-590761.6875
262.5;11602372;-142697.5;-367908.1875
263;20738292;-1497647.25;79228.890625
263.5;27873848;-2665177.5;566754.875
264;32086960;-3323401.5;890184.75
264.5;32646908;-3248001;893704.8125
265;29157620;-2390950;525036.5
265.5;21702084;-919361.5;-139774.59375
266;10941002;820336.5;-910997.5
266.5;-1882350.75;2392191;-1538807
267;-15061059;3393801.75;-1794229.75
267.5;-26663980;3572442.75;-1552834.5
268;-34858056;2898431.5;-849747.6875
268.5;-38247312;1572382.75;121914.9375
269;-36151096;-35701.9453125;1074596
269.5;-28757424;-1496420;1729517.625
